# EIG2DOS: Utility for SIESTA to obtain the electronic density of states
#  E. Artacho, Apr 1999, A. Garcia, Apr 2012
#  Nick R. Papior, Feb 2017
# ------------------------------------------
# Eigenvalues read from graphite_c6.EIG
# Kpoint weights read from graphite_c6.KP
# Using smearing parameter:   0.1000
# Using 1000 points in the energy range
# Selected bands: 1 to: 52
# Emin, Emax in file for selected band(s):    -24.0101985    179.7326860
# Nbands, Nspin, Nk   =     52     1    25
# E_F                 =    -4.9094 eV --> (shifted to ZERO)
# Broadening          =     0.1000 eV
#
#        E            N(up)  (=)   N(down)         Ntot
     -4.000000      0.019307      0.019307      0.038615
     -3.991992      0.026677      0.026677      0.053353
     -3.983984      0.036400      0.036400      0.072800
     -3.975976      0.049040      0.049040      0.098080
     -3.967968      0.065231      0.065231      0.130463
     -3.959960      0.085664      0.085664      0.171329
     -3.951952      0.111065      0.111065      0.222131
     -3.943944      0.142163      0.142163      0.284326
     -3.935936      0.179650      0.179650      0.359300
     -3.927928      0.224128      0.224128      0.448257
     -3.919920      0.276056      0.276056      0.552111
     -3.911912      0.335681      0.335681      0.671362
     -3.903904      0.402983      0.402983      0.805966
     -3.895896      0.477614      0.477614      0.955227
     -3.887888      0.558852      0.558852      1.117705
     -3.879880      0.645577      0.645577      1.291154
     -3.871872      0.736257      0.736257      1.472514
     -3.863864      0.828976      0.828976      1.657953
     -3.855856      0.921482      0.921482      1.842963
     -3.847848      1.011263      1.011263      2.022526
     -3.839840      1.095660      1.095660      2.191319
     -3.831832      1.171990      1.171990      2.343980
     -3.823824      1.237692      1.237692      2.475383
     -3.815816      1.290466      1.290466      2.580932
     -3.807808      1.328417      1.328417      2.656834
     -3.799800      1.350171      1.350171      2.700342
     -3.791792      1.354967      1.354967      2.709933
     -3.783784      1.342712      1.342712      2.685425
     -3.775776      1.314003      1.314003      2.628005
     -3.767768      1.270094      1.270094      2.540187
     -3.759760      1.212840      1.212840      2.425681
     -3.751752      1.144602      1.144602      2.289204
     -3.743744      1.068125      1.068125      2.136249
     -3.735736      0.986406      0.986406      1.972813
     -3.727728      0.902563      0.902563      1.805125
     -3.719720      0.819694      0.819694      1.639387
     -3.711712      0.740768      0.740768      1.481535
     -3.703704      0.668519      0.668519      1.337038
     -3.695696      0.605372      0.605372      1.210744
     -3.687688      0.553379      0.553379      1.106759
     -3.679680      0.514187      0.514187      1.028374
     -3.671672      0.489007      0.489007      0.978013
     -3.663664      0.478604      0.478604      0.957208
     -3.655656      0.483293      0.483293      0.966585
     -3.647648      0.502931      0.502931      1.005863
     -3.639640      0.536926      0.536926      1.073851
     -3.631632      0.584232      0.584232      1.168464
     -3.623624      0.643367      0.643367      1.286734
     -3.615616      0.712428      0.712428      1.424856
     -3.607608      0.789127      0.789127      1.578254
     -3.599600      0.870839      0.870839      1.741677
     -3.591592      0.954673      0.954673      1.909346
     -3.583584      1.037566      1.037566      2.075133
     -3.575576      1.116395      1.116395      2.232789
     -3.567568      1.188099      1.188099      2.376198
     -3.559560      1.249822      1.249822      2.499645
     -3.551552      1.299043      1.299043      2.598086
     -3.543544      1.333702      1.333702      2.667404
     -3.535536      1.352307      1.352307      2.704614
     -3.527528      1.354007      1.354007      2.708015
     -3.519520      1.338634      1.338634      2.677268
     -3.511512      1.306699      1.306699      2.613397
     -3.503504      1.259351      1.259351      2.518703
     -3.495495      1.198304      1.198304      2.396607
     -3.487487      1.125716      1.125716      2.251431
     -3.479479      1.044067      1.044067      2.088134
     -3.471471      0.956012      0.956012      1.912023
     -3.463463      0.864234      0.864234      1.728468
     -3.455455      0.771314      0.771314      1.542629
     -3.447447      0.679615      0.679615      1.359230
     -3.439439      0.591188      0.591188      1.182376
     -3.431431      0.507713      0.507713      1.015426
     -3.423423      0.430469      0.430469      0.860938
     -3.415415      0.360326      0.360326      0.720651
     -3.407407      0.297768      0.297768      0.595537
     -3.399399      0.242936      0.242936      0.485872
     -3.391391      0.195675      0.195675      0.391350
     -3.383383      0.155600      0.155600      0.311200
     -3.375375      0.122155      0.122155      0.244311
     -3.367367      0.094677      0.094677      0.189355
     -3.359359      0.072445      0.072445      0.144890
     -3.351351      0.054727      0.054727      0.109454
     -3.343343      0.040816      0.040816      0.081631
     -3.335335      0.030052      0.030052      0.060105
     -3.327327      0.021845      0.021845      0.043691
     -3.319319      0.015677      0.015677      0.031355
     -3.311311      0.011108      0.011108      0.022215
     -3.303303      0.007769      0.007769      0.015539
     -3.295295      0.005365      0.005365      0.010731
     -3.287287      0.003658      0.003658      0.007316
     -3.279279      0.002462      0.002462      0.004924
     -3.271271      0.001636      0.001636      0.003272
     -3.263263      0.001073      0.001073      0.002147
     -3.255255      0.000695      0.000695      0.001391
     -3.247247      0.000445      0.000445      0.000890
     -3.239239      0.000281      0.000281      0.000563
     -3.231231      0.000176      0.000176      0.000353
     -3.223223      0.000110      0.000110      0.000221
     -3.215215      0.000070      0.000070      0.000140
     -3.207207      0.000047      0.000047      0.000095
     -3.199199      0.000037      0.000037      0.000075
     -3.191191      0.000037      0.000037      0.000075
     -3.183183      0.000047      0.000047      0.000095
     -3.175175      0.000070      0.000070      0.000139
     -3.167167      0.000108      0.000108      0.000217
     -3.159159      0.000171      0.000171      0.000342
     -3.151151      0.000270      0.000270      0.000539
     -3.143143      0.000421      0.000421      0.000842
     -3.135135      0.000650      0.000650      0.001299
     -3.127127      0.000990      0.000990      0.001980
     -3.119119      0.001491      0.001491      0.002981
     -3.111111      0.002216      0.002216      0.004431
     -3.103103      0.003252      0.003252      0.006504
     -3.095095      0.004713      0.004713      0.009427
     -3.087087      0.006745      0.006745      0.013491
     -3.079079      0.009532      0.009532      0.019064
     -3.071071      0.013300      0.013300      0.026600
     -3.063063      0.018324      0.018324      0.036648
     -3.055055      0.024929      0.024929      0.049859
     -3.047047      0.033490      0.033490      0.066980
     -3.039039      0.044426      0.044426      0.088852
     -3.031031      0.058195      0.058195      0.116390
     -3.023023      0.075278      0.075278      0.150556
     -3.015015      0.096160      0.096160      0.192321
     -3.007007      0.121306      0.121306      0.242612
     -2.998999      0.151127      0.151127      0.302254
     -2.990991      0.185949      0.185949      0.371899
     -2.982983      0.225978      0.225978      0.451955
     -2.974975      0.271260      0.271260      0.542519
     -2.966967      0.321656      0.321656      0.643312
     -2.958959      0.376819      0.376819      0.753638
     -2.950951      0.436183      0.436183      0.872366
     -2.942943      0.498967      0.498967      0.997935
     -2.934935      0.564201      0.564201      1.128403
     -2.926927      0.630764      0.630764      1.261528
     -2.918919      0.697441      0.697441      1.394882
     -2.910911      0.762998      0.762998      1.525996
     -2.902903      0.826259      0.826259      1.652518
     -2.894895      0.886193      0.886193      1.772386
     -2.886887      0.941987      0.941987      1.883975
     -2.878879      0.993116      0.993116      1.986232
     -2.870871      1.039379      1.039379      2.078758
     -2.862863      1.080917      1.080917      2.161835
     -2.854855      1.118197      1.118197      2.236395
     -2.846847      1.151957      1.151957      2.303914
     -2.838839      1.183127      1.183127      2.366254
     -2.830831      1.212725      1.212725      2.425451
     -2.822823      1.241734      1.241734      2.483469
     -2.814815      1.270977      1.270977      2.541955
     -2.806807      1.301002      1.301002      2.602004
     -2.798799      1.331985      1.331985      2.663970
     -2.790791      1.363667      1.363667      2.727334
     -2.782783      1.395332      1.395332      2.790664
     -2.774775      1.425827      1.425827      2.851655
     -2.766767      1.453629      1.453629      2.907257
     -2.758759      1.476944      1.476944      2.953888
     -2.750751      1.493850      1.493850      2.987701
     -2.742743      1.502444      1.502444      3.004889
     -2.734735      1.501000      1.501000      3.002001
     -2.726727      1.488116      1.488116      2.976232
     -2.718719      1.462835      1.462835      2.925669
     -2.710711      1.424732      1.424732      2.849463
     -2.702703      1.373960      1.373960      2.747920
     -2.694695      1.311249      1.311249      2.622499
     -2.686687      1.237863      1.237863      2.475725
     -2.678679      1.155513      1.155513      2.311026
     -2.670671      1.066254      1.066254      2.132508
     -2.662663      0.972350      0.972350      1.944699
     -2.654655      0.876139      0.876139      1.752278
     -2.646647      0.779904      0.779904      1.559809
     -2.638639      0.685758      0.685758      1.371515
     -2.630631      0.595546      0.595546      1.191091
     -2.622623      0.510784      0.510784      1.021569
     -2.614615      0.432622      0.432622      0.865244
     -2.606607      0.361830      0.361830      0.723660
     -2.598599      0.298818      0.298818      0.597635
     -2.590591      0.243668      0.243668      0.487336
     -2.582583      0.196187      0.196187      0.392373
     -2.574575      0.155958      0.155958      0.311917
     -2.566567      0.122408      0.122408      0.244816
     -2.558559      0.094856      0.094856      0.189712
     -2.550551      0.072572      0.072572      0.145144
     -2.542543      0.054818      0.054818      0.109635
     -2.534535      0.040880      0.040880      0.081760
     -2.526527      0.030099      0.030099      0.060197
     -2.518519      0.021878      0.021878      0.043757
     -2.510511      0.015701      0.015701      0.031402
     -2.502503      0.011124      0.011124      0.022248
     -2.494494      0.007781      0.007781      0.015562
     -2.486486      0.005373      0.005373      0.010747
     -2.478478      0.003663      0.003663      0.007327
     -2.470470      0.002466      0.002466      0.004932
     -2.462462      0.001639      0.001639      0.003277
     -2.454454      0.001075      0.001075      0.002150
     -2.446446      0.000696      0.000696      0.001393
     -2.438438      0.000445      0.000445      0.000890
     -2.430430      0.000281      0.000281      0.000562
     -2.422422      0.000175      0.000175      0.000350
     -2.414414      0.000108      0.000108      0.000216
     -2.406406      0.000065      0.000065      0.000131
     -2.398398      0.000039      0.000039      0.000079
     -2.390390      0.000023      0.000023      0.000046
     -2.382382      0.000014      0.000014      0.000027
     -2.374374      0.000008      0.000008      0.000016
     -2.366366      0.000004      0.000004      0.000009
     -2.358358      0.000003      0.000003      0.000005
     -2.350350      0.000001      0.000001      0.000003
     -2.342342      0.000001      0.000001      0.000002
     -2.334334      0.000000      0.000000      0.000001
     -2.326326      0.000000      0.000000      0.000000
     -2.318318      0.000000      0.000000      0.000000
     -2.310310      0.000000      0.000000      0.000000
     -2.302302      0.000000      0.000000      0.000000
     -2.294294      0.000000      0.000000      0.000000
     -2.286286      0.000000      0.000000      0.000000
     -2.278278      0.000000      0.000000      0.000000
     -2.270270      0.000000      0.000000      0.000000
     -2.262262      0.000000      0.000000      0.000000
     -2.254254      0.000000      0.000000      0.000000
     -2.246246      0.000000      0.000000      0.000000
     -2.238238      0.000000      0.000000      0.000000
     -2.230230      0.000000      0.000000      0.000000
     -2.222222      0.000000      0.000000      0.000000
     -2.214214      0.000000      0.000000      0.000000
     -2.206206      0.000000      0.000000      0.000000
     -2.198198      0.000000      0.000000      0.000000
     -2.190190      0.000000      0.000000      0.000000
     -2.182182      0.000000      0.000000      0.000000
     -2.174174      0.000000      0.000000      0.000000
     -2.166166      0.000000      0.000000      0.000000
     -2.158158      0.000000      0.000000      0.000000
     -2.150150      0.000000      0.000000      0.000000
     -2.142142      0.000000      0.000000      0.000000
     -2.134134      0.000000      0.000000      0.000000
     -2.126126      0.000000      0.000000      0.000000
     -2.118118      0.000000      0.000000      0.000000
     -2.110110      0.000000      0.000000      0.000000
     -2.102102      0.000000      0.000000      0.000000
     -2.094094      0.000000      0.000000      0.000000
     -2.086086      0.000000      0.000000      0.000000
     -2.078078      0.000000      0.000000      0.000000
     -2.070070      0.000000      0.000000      0.000000
     -2.062062      0.000000      0.000000      0.000000
     -2.054054      0.000000      0.000000      0.000000
     -2.046046      0.000000      0.000000      0.000000
     -2.038038      0.000000      0.000000      0.000000
     -2.030030      0.000000      0.000000      0.000000
     -2.022022      0.000000      0.000000      0.000000
     -2.014014      0.000000      0.000000      0.000000
     -2.006006      0.000000      0.000000      0.000000
     -1.997998      0.000000      0.000000      0.000000
     -1.989990      0.000000      0.000000      0.000000
     -1.981982      0.000000      0.000000      0.000000
     -1.973974      0.000000      0.000000      0.000000
     -1.965966      0.000000      0.000000      0.000000
     -1.957958      0.000000      0.000000      0.000001
     -1.949950      0.000001      0.000001      0.000001
     -1.941942      0.000001      0.000001      0.000002
     -1.933934      0.000002      0.000002      0.000004
     -1.925926      0.000003      0.000003      0.000007
     -1.917918      0.000006      0.000006      0.000012
     -1.909910      0.000010      0.000010      0.000021
     -1.901902      0.000018      0.000018      0.000035
     -1.893894      0.000030      0.000030      0.000060
     -1.885886      0.000051      0.000051      0.000101
     -1.877878      0.000084      0.000084      0.000167
     -1.869870      0.000137      0.000137      0.000274
     -1.861862      0.000221      0.000221      0.000442
     -1.853854      0.000353      0.000353      0.000705
     -1.845846      0.000555      0.000555      0.001110
     -1.837838      0.000863      0.000863      0.001725
     -1.829830      0.001323      0.001323      0.002647
     -1.821822      0.002004      0.002004      0.004009
     -1.813814      0.002997      0.002997      0.005995
     -1.805806      0.004425      0.004425      0.008851
     -1.797798      0.006450      0.006450      0.012900
     -1.789790      0.009282      0.009282      0.018563
     -1.781782      0.013186      0.013186      0.026371
     -1.773774      0.018493      0.018493      0.036987
     -1.765766      0.025607      0.025607      0.051214
     -1.757758      0.035005      0.035005      0.070009
     -1.749750      0.047242      0.047242      0.094484
     -1.741742      0.062944      0.062944      0.125889
     -1.733734      0.082798      0.082798      0.165595
     -1.725726      0.107525      0.107525      0.215049
     -1.717718      0.137857      0.137857      0.275714
     -1.709710      0.174493      0.174493      0.348986
     -1.701702      0.218051      0.218051      0.436103
     -1.693694      0.269010      0.269010      0.538020
     -1.685686      0.327649      0.327649      0.655297
     -1.677678      0.393983      0.393983      0.787967
     -1.669670      0.467711      0.467711      0.935422
     -1.661662      0.548160      0.548160      1.096319
     -1.653654      0.634259      0.634259      1.268517
     -1.645646      0.724529      0.724529      1.449058
     -1.637638      0.817099      0.817099      1.634199
     -1.629630      0.909754      0.909754      1.819508
     -1.621622      1.000007      1.000007      2.000013
     -1.613614      1.085205      1.085205      2.170410
     -1.605606      1.162654      1.162654      2.325308
     -1.597598      1.229757      1.229757      2.459513
     -1.589590      1.284156      1.284156      2.568312
     -1.581582      1.323872      1.323872      2.647745
     -1.573574      1.347425      1.347425      2.694849
     -1.565566      1.353919      1.353919      2.707838
     -1.557558      1.343108      1.343108      2.686215
     -1.549550      1.315403      1.315403      2.630806
     -1.541542      1.271853      1.271853      2.543705
     -1.533534      1.214072      1.214072      2.428145
     -1.525526      1.144148      1.144148      2.288297
     -1.517518      1.064510      1.064510      2.129021
     -1.509510      0.977794      0.977794      1.955588
     -1.501502      0.886696      0.886696      1.773392
     -1.493493      0.793838      0.793838      1.587677
     -1.485485      0.701648      0.701648      1.403296
     -1.477477      0.612261      0.612261      1.224522
     -1.469469      0.527453      0.527453      1.054905
     -1.461461      0.448601      0.448601      0.897203
     -1.453453      0.376676      0.376676      0.753351
     -1.445445      0.312252      0.312252      0.624504
     -1.437437      0.255548      0.255548      0.511097
     -1.429429      0.206477      0.206477      0.412955
     -1.421421      0.164705      0.164705      0.329410
     -1.413413      0.129712      0.129712      0.259423
     -1.405405      0.100856      0.100856      0.201711
     -1.397397      0.077428      0.077428      0.154855
     -1.389389      0.058697      0.058697      0.117395
     -1.381381      0.043953      0.043953      0.087906
     -1.373373      0.032528      0.032528      0.065057
     -1.365365      0.023825      0.023825      0.047649
     -1.357357      0.017320      0.017320      0.034640
     -1.349349      0.012577      0.012577      0.025153
     -1.341341      0.009241      0.009241      0.018482
     -1.333333      0.007043      0.007043      0.014086
     -1.325325      0.005792      0.005792      0.011585
     -1.317317      0.005375      0.005375      0.010751
     -1.309309      0.005754      0.005754      0.011507
     -1.301301      0.006962      0.006962      0.013924
     -1.293293      0.009111      0.009111      0.018222
